t, velocity, pressure, k, omega, wall_distance
 1.0050000e-02,  3.0835161e+00,  5.0904005e+02,  1.6188424e+02,  1.4162740e+02,  0.0000000e+00
 1.0100000e-02,  3.0577778e+00,  7.8691243e+01,  1.6669724e+02,  8.2743090e+01,  0.0000000e+00
 1.0150000e-02,  3.0511838e+00,  7.0630677e+01,  1.6798727e+02,  5.4971699e+01,  0.0000000e+00
 1.0200000e-02,  3.0508330e+00,  7.0938358e+01,  1.6659380e+02,  4.6380566e+01,  0.0000000e+00
 1.0250000e-02,  3.0542573e+00,  7.1084102e+01,  1.6659868e+02,  4.8121807e+01,  0.0000000e+00
 1.0300000e-02,  3.0606662e+00,  7.1416800e+01,  1.6622149e+02,  4.2047967e+01,  0.0000000e+00
 1.0350000e-02,  3.0684092e+00,  7.1874023e+01,  1.6605235e+02,  8.9379730e+01,  0.0000000e+00
 1.0400000e-02,  3.0777734e+00,  7.2526813e+01,  1.6564283e+02,  8.6992939e+01,  0.0000000e+00
 1.0450000e-02,  3.0889439e+00,  7.3121886e+01,  1.6564367e+02,  1.0880932e+02,  0.0000000e+00
 1.0500000e-02,  3.1014722e+00,  7.3788013e+01,  1.6653178e+02,  8.1151890e+01,  0.0000000e+00
 1.0550000e-02,  3.1146896e+00,  7.4471665e+01,  1.6723330e+02,  5.9644367e+01,  0.0000000e+00
 1.0600000e-02,  3.1311211e+00,  7.5317491e+01,  1.6801221e+02,  4.6212066e+01,  0.0000000e+00
 1.0650000e-02,  3.1464422e+00,  7.6096289e+01,  1.6844098e+02,  1.7258381e+02,  0.0000000e+00
 1.0700000e-02,  3.1629436e+00,  7.6993070e+01,  1.6892429e+02,  9.5009218e+01,  0.0000000e+00
 1.0750000e-02,  3.1805769e+00,  7.7772346e+01,  1.6898674e+02,  5.8652753e+01,  0.0000000e+00
 1.0800000e-02,  3.2000016e+00,  7.8744749e+01,  1.6940932e+02,  4.6324080e+01,  0.0000000e+00
 1.0850000e-02,  3.2185265e+00,  7.9621684e+01,  1.7010862e+02,  4.4191889e+01,  0.0000000e+00
 1.0900000e-02,  3.2389426e+00,  8.0584526e+01,  1.7094671e+02,  4.2300704e+01,  0.0000000e+00
 1.0950000e-02,  3.2600661e+00,  8.1568811e+01,  1.7125915e+02,  5.1767654e+01,  0.0000000e+00
 1.1000000e-02,  3.2816168e+00,  8.2612043e+01,  1.7251613e+02,  4.8785028e+01,  0.0000000e+00
 1.1050000e-02,  3.3040653e+00,  8.3703982e+01,  1.7282861e+02,  4.8602497e+01,  0.0000000e+00
 1.1100000e-02,  3.3264930e+00,  8.4747190e+01,  1.7333955e+02,  4.9136001e+01,  0.0000000e+00
 1.1150000e-02,  3.3507726e+00,  8.5929981e+01,  1.7334450e+02,  4.5246344e+01,  0.0000000e+00
 1.1200000e-02,  3.3738551e+00,  8.7052963e+01,  1.7350842e+02,  5.0766497e+01,  0.0000000e+00
 1.1250000e-02,  3.3993129e+00,  8.8262583e+01,  1.7414290e+02,  6.5123984e+01,  0.0000000e+00
 1.1300000e-02,  3.4252580e+00,  8.9348506e+01,  1.7434785e+02,  3.9666908e+03,  0.0000000e+00
 1.1350000e-02,  3.4504111e+00,  9.0535214e+01,  1.7680176e+02,  2.0142021e+03,  0.0000000e+00
 1.1400000e-02,  3.4771745e+00,  9.1768155e+01,  1.7558027e+02,  1.0141917e+03,  0.0000000e+00
 1.1450000e-02,  3.5042388e+00,  9.3039811e+01,  1.7538366e+02,  5.6753332e+02,  0.0000000e+00
 1.1500000e-02,  3.5317921e+00,  9.4281332e+01,  1.7674440e+02,  2.8727216e+02,  0.0000000e+00
 1.1550000e-02,  3.5604166e+00,  9.5613435e+01,  1.7621557e+02,  1.4873495e+02,  0.0000000e+00
 1.1600000e-02,  3.5883169e+00,  9.6833480e+01,  1.7657509e+02,  1.5933404e+02,  0.0000000e+00
 1.1650000e-02,  3.6173615e+00,  9.8066908e+01,  1.7747927e+02,  8.9270140e+01,  0.0000000e+00
 1.1700000e-02,  3.6466577e+00,  9.9357302e+01,  1.7712726e+02,  5.7365522e+01,  0.0000000e+00
 1.1750000e-02,  3.6751778e+00,  1.0062020e+02,  1.7706464e+02,  1.1931231e+02,  0.0000000e+00
 1.1800000e-02,  3.7056478e+00,  1.0195312e+02,  1.7796208e+02,  2.8528034e+02,  0.0000000e+00
 1.1850000e-02,  3.7346873e+00,  1.0318565e+02,  1.7808201e+02,  1.4751834e+02,  0.0000000e+00
 1.1900000e-02,  3.7634486e+00,  1.0444926e+02,  1.7790448e+02,  8.1485364e+01,  0.0000000e+00
 1.1950000e-02,  3.7932137e+00,  1.0569022e+02,  1.7763536e+02,  5.5067174e+01,  0.0000000e+00
 1.2000000e-02,  3.8223218e+00,  1.0685569e+02,  1.7733590e+02,  4.5532850e+01,  0.0000000e+00
 1.2050000e-02,  3.8518090e+00,  1.0815401e+02,  1.7692998e+02,  1.0765417e+03,  0.0000000e+00
 1.2100000e-02,  3.8812957e+00,  1.0929409e+02,  1.7749401e+02,  5.4012777e+02,  0.0000000e+00
 1.2150000e-02,  3.9101483e+00,  1.1044519e+02,  1.7704775e+02,  2.7217880e+02,  0.0000000e+00
 1.2200000e-02,  3.9396121e+00,  1.1159064e+02,  1.7622781e+02,  2.0565138e+02,  0.0000000e+00
 1.2250000e-02,  3.9691400e+00,  1.1269987e+02,  1.7583518e+02,  1.1128162e+02,  0.0000000e+00
 1.2300000e-02,  3.9970644e+00,  1.1374009e+02,  1.7544365e+02,  6.6785491e+01,  0.0000000e+00
 1.2350000e-02,  4.0259509e+00,  1.1483647e+02,  1.7509238e+02,  1.1592295e+02,  0.0000000e+00
 1.2400000e-02,  4.0548958e+00,  1.1587304e+02,  1.7420833e+02,  9.4732326e+01,  0.0000000e+00
 1.2450000e-02,  4.0831130e+00,  1.1682641e+02,  1.7409727e+02,  5.9375804e+01,  0.0000000e+00
 1.2500000e-02,  4.1105690e+00,  1.1774334e+02,  1.7318746e+02,  4.4582845e+01,  0.0000000e+00
 1.2550000e-02,  4.1382715e+00,  1.1869078e+02,  1.7236816e+02,  4.2089708e+01,  0.0000000e+00
 1.2600000e-02,  4.1647501e+00,  1.1950938e+02,  1.7211689e+02,  5.4055915e+01,  0.0000000e+00
 1.2650000e-02,  4.1922023e+00,  1.2049850e+02,  1.7093820e+02,  4.4608407e+01,  0.0000000e+00
 1.2700000e-02,  4.2178844e+00,  1.2119047e+02,  1.7016442e+02,  4.0545164e+01,  0.0000000e+00
 1.2750000e-02,  4.2441627e+00,  1.2206732e+02,  1.6908329e+02,  3.9823910e+01,  0.0000000e+00
 1.2800000e-02,  4.2693041e+00,  1.2276571e+02,  1.6781252e+02,  4.2981437e+01,  0.0000000e+00
 1.2850000e-02,  4.2947637e+00,  1.2363620e+02,  1.6708377e+02,  4.0142624e+01,  0.0000000e+00
 1.2900000e-02,  4.3190954e+00,  1.2405489e+02,  1.6604540e+02,  8.9925655e+01,  0.0000000e+00
 1.2950000e-02,  4.3431383e+00,  1.2486047e+02,  1.6492400e+02,  5.9731214e+01,  0.0000000e+00
 1.3000000e-02,  4.3660618e+00,  1.2532070e+02,  1.6391415e+02,  4.6003622e+01,  0.0000000e+00
 1.3050000e-02,  4.3893010e+00,  1.2590733e+02,  1.6288463e+02,  6.2014044e+01,  0.0000000e+00
 1.3100000e-02,  4.4111235e+00,  1.2641762e+02,  1.6271754e+02,  4.8494227e+01,  0.0000000e+00
 1.3150000e-02,  4.4329966e+00,  1.2696360e+02,  1.6039966e+02,  1.2602943e+02,  0.0000000e+00
 1.3200000e-02,  4.4550801e+00,  1.2741429e+02,  1.5925151e+02,  9.3166630e+01,  0.0000000e+00
 1.3250000e-02,  4.4761718e+00,  1.2790286e+02,  1.5811783e+02,  6.1130028e+01,  0.0000000e+00
 1.3300000e-02,  4.4979009e+00,  1.2836205e+02,  1.5698933e+02,  6.2188068e+01,  0.0000000e+00
 1.3350000e-02,  4.5177603e+00,  1.2877270e+02,  1.5656280e+02,  6.4357201e+01,  0.0000000e+00
 1.3400000e-02,  4.5376270e+00,  1.2923379e+02,  1.5536972e+02,  1.1096811e+02,  0.0000000e+00
 1.3450000e-02,  4.5567709e+00,  1.2957252e+02,  1.5451205e+02,  7.1434400e+01,  0.0000000e+00
 1.3500000e-02,  4.5755029e+00,  1.2984139e+02,  1.5358869e+02,  5.4583862e+01,  0.0000000e+00
 1.3550000e-02,  4.5929754e+00,  1.3010421e+02,  1.5257989e+02,  1.2240822e+02,  0.0000000e+00
 1.3600000e-02,  4.6107699e+00,  1.3040355e+02,  1.5325054e+02,  2.5266116e+02,  0.0000000e+00
 1.3650000e-02,  4.6280119e+00,  1.3067211e+02,  1.5140972e+02,  1.3159248e+02,  0.0000000e+00
 1.3700000e-02,  4.6448374e+00,  1.3088796e+02,  1.4999926e+02,  2.9840492e+02,  0.0000000e+00
 1.3750000e-02,  4.6608846e+00,  1.3106791e+02,  1.5042846e+02,  1.5583158e+02,  0.0000000e+00
 1.3800000e-02,  4.6760505e+00,  1.3135319e+02,  1.4937681e+02,  8.6329749e+01,  0.0000000e+00
 1.3850000e-02,  4.6915002e+00,  1.3153423e+02,  1.4841401e+02,  8.1539906e+01,  0.0000000e+00
 1.3900000e-02,  4.7060483e+00,  1.3161093e+02,  1.4777115e+02,  5.6179356e+01,  0.0000000e+00
 1.3950000e-02,  4.7202461e+00,  1.3184411e+02,  1.4678525e+02,  4.7317499e+01,  0.0000000e+00
 1.4000000e-02,  4.7339162e+00,  1.3192699e+02,  1.4592107e+02,  4.6627440e+01,  0.0000000e+00
 1.4050000e-02,  4.7470245e+00,  1.3207388e+02,  1.4536784e+02,  4.1881512e+01,  0.0000000e+00
 1.4100000e-02,  4.7595340e+00,  1.3218716e+02,  1.4472672e+02,  4.1194666e+01,  0.0000000e+00
 1.4150000e-02,  4.7707939e+00,  1.3220305e+02,  1.4402602e+02,  1.4979272e+03,  0.0000000e+00
 1.4200000e-02,  4.7824612e+00,  1.3231689e+02,  1.4492290e+02,  7.5393961e+02,  0.0000000e+00
 1.4250000e-02,  4.7941261e+00,  1.3230169e+02,  1.4324643e+02,  3.7880826e+02,  0.0000000e+00
 1.4300000e-02,  4.8050479e+00,  1.3239325e+02,  1.4218431e+02,  2.4499444e+02,  0.0000000e+00
 1.4350000e-02,  4.8155202e+00,  1.3247410e+02,  1.4474729e+02,  1.4413907e+02,  0.0000000e+00
 1.4400000e-02,  4.8254751e+00,  1.3249179e+02,  1.4192690e+02,  7.9689036e+01,  0.0000000e+00
 1.4450000e-02,  4.8349401e+00,  1.3236736e+02,  1.4077267e+02,  6.1818802e+02,  0.0000000e+00
 1.4500000e-02,  4.8442419e+00,  1.3244461e+02,  1.4743495e+02,  3.1309514e+02,  0.0000000e+00
 1.4550000e-02,  4.8529798e+00,  1.3234488e+02,  1.4138002e+02,  1.7209363e+02,  0.0000000e+00
 1.4600000e-02,  4.8619056e+00,  1.3227422e+02,  1.4026723e+02,  1.0234452e+02,  0.0000000e+00
 1.4650000e-02,  4.8704895e+00,  1.3229878e+02,  1.4053580e+02,  6.4338805e+01,  0.0000000e+00
 1.4700000e-02,  4.8783069e+00,  1.3216090e+02,  1.3923873e+02,  2.0942832e+02,  0.0000000e+00
 1.4750000e-02,  4.8858580e+00,  1.3211243e+02,  1.4014651e+02,  2.6638680e+02,  0.0000000e+00
 1.4800000e-02,  4.8930023e+00,  1.3203542e+02,  1.4017385e+02,  2.7898132e+02,  0.0000000e+00
 1.4850000e-02,  4.9000760e+00,  1.3186922e+02,  1.3863673e+02,  1.4427177e+02,  0.0000000e+00
 1.4900000e-02,  4.9076502e+00,  1.3171730e+02,  1.3754835e+02,  8.9557973e+01,  0.0000000e+00
 1.4950000e-02,  4.9149812e+00,  1.3171640e+02,  1.3669712e+02,  6.6004266e+01,  0.0000000e+00
 1.5000000e-02,  4.9221004e+00,  1.3153926e+02,  1.3655473e+02,  6.3832786e+01,  0.0000000e+00
 1.5050000e-02,  4.9287516e+00,  1.3143555e+02,  1.3613550e+02,  4.9630740e+01,  0.0000000e+00
 1.5100000e-02,  4.9351855e+00,  1.3129352e+02,  1.3584402e+02,  5.5192419e+01,  0.0000000e+00
 1.5150000e-02,  4.9418517e+00,  1.3113020e+02,  1.3541624e+02,  4.7244885e+01,  0.0000000e+00
 1.5200000e-02,  4.9484908e+00,  1.3103866e+02,  1.3505936e+02,  1.3570042e+02,  0.0000000e+00
 1.5250000e-02,  4.9552493e+00,  1.3090553e+02,  1.3477731e+02,  2.3652354e+02,  0.0000000e+00
 1.5300000e-02,  4.9622749e+00,  1.3079244e+02,  1.3776261e+02,  1.2417408e+02,  0.0000000e+00
 1.5350000e-02,  4.9683809e+00,  1.3057441e+02,  1.3554159e+02,  1.0324588e+02,  0.0000000e+00
 1.5400000e-02,  4.9744943e+00,  1.3034894e+02,  1.3426613e+02,  8.0657499e+03,  0.0000000e+00
 1.5450000e-02,  4.9813681e+00,  1.3029797e+02,  1.4108059e+02,  4.3049556e+03,  0.0000000e+00
 1.5500000e-02,  4.9886667e+00,  1.3002937e+02,  1.3532248e+02,  2.1911739e+03,  0.0000000e+00
 1.5550000e-02,  4.9952034e+00,  1.2990817e+02,  1.3385605e+02,  1.1023104e+03,  0.0000000e+00
 1.5600000e-02,  5.0022709e+00,  1.2967984e+02,  1.3416827e+02,  1.4567242e+03,  0.0000000e+00
 1.5650000e-02,  5.0086826e+00,  1.2951494e+02,  1.3710057e+02,  7.3165574e+02,  0.0000000e+00
 1.5700000e-02,  5.0155385e+00,  1.2940334e+02,  1.3454012e+02,  3.6763320e+02,  0.0000000e+00
 1.5750000e-02,  5.0225842e+00,  1.2905713e+02,  1.3354705e+02,  1.8974464e+02,  0.0000000e+00
 1.5800000e-02,  5.0299173e+00,  1.2890389e+02,  1.3398275e+02,  1.0176207e+02,  0.0000000e+00
 1.5850000e-02,  5.0374730e+00,  1.2870362e+02,  1.3365476e+02,  1.0854913e+02,  0.0000000e+00
 1.5900000e-02,  5.0456186e+00,  1.2861818e+02,  1.3367666e+02,  6.8442854e+01,  0.0000000e+00
 1.5950000e-02,  5.0531470e+00,  1.2841628e+02,  1.3353426e+02,  5.6377897e+01,  0.0000000e+00
 1.6000000e-02,  5.0609617e+00,  1.2827008e+02,  1.3336980e+02,  1.0521830e+02,  0.0000000e+00
 1.6050000e-02,  5.0690538e+00,  1.2806132e+02,  1.3315189e+02,  7.3394321e+01,  0.0000000e+00
 1.6100000e-02,  5.0779616e+00,  1.2779971e+02,  1.3315797e+02,  6.6847547e+01,  0.0000000e+00
 1.6150000e-02,  5.0861081e+00,  1.2769112e+02,  1.3303712e+02,  7.9732958e+01,  0.0000000e+00
 1.6200000e-02,  5.0942355e+00,  1.2756913e+02,  1.3302781e+02,  5.2067690e+01,  0.0000000e+00
 1.6250000e-02,  5.1022140e+00,  1.2735596e+02,  1.3304846e+02,  4.5972521e+01,  0.0000000e+00
 1.6300000e-02,  5.1106873e+00,  1.2722183e+02,  1.3311801e+02,  4.3138680e+01,  0.0000000e+00
 1.6350000e-02,  5.1198467e+00,  1.2699088e+02,  1.3316078e+02,  4.3908789e+01,  0.0000000e+00
 1.6400000e-02,  5.1286512e+00,  1.2692325e+02,  1.3322170e+02,  4.0635648e+01,  0.0000000e+00
 1.6450000e-02,  5.1375378e+00,  1.2674591e+02,  1.3334880e+02,  4.6142279e+01,  0.0000000e+00
 1.6500000e-02,  5.1464100e+00,  1.2659537e+02,  1.3357271e+02,  6.3763450e+01,  0.0000000e+00
 1.6550000e-02,  5.1555801e+00,  1.2643897e+02,  1.3393474e+02,  8.7875181e+01,  0.0000000e+00
 1.6600000e-02,  5.1653908e+00,  1.2628357e+02,  1.3416488e+02,  1.9306397e+03,  0.0000000e+00
 1.6650000e-02,  5.1761989e+00,  1.2624231e+02,  1.3756851e+02,  9.7004217e+02,  0.0000000e+00
 1.6700000e-02,  5.1857836e+00,  1.2612296e+02,  1.3528299e+02,  4.8722431e+02,  0.0000000e+00
 1.6750000e-02,  5.1956284e+00,  1.2587875e+02,  1.3453490e+02,  2.6985046e+02,  0.0000000e+00
 1.6800000e-02,  5.2059487e+00,  1.2573252e+02,  1.3570020e+02,  1.5589925e+02,  0.0000000e+00
 1.6850000e-02,  5.2178524e+00,  1.2567565e+02,  1.3550919e+02,  8.9551457e+01,  0.0000000e+00
 1.6900000e-02,  5.2291113e+00,  1.2557756e+02,  1.3589669e+02,  6.0077589e+01,  0.0000000e+00
 1.6950000e-02,  5.2404374e+00,  1.2544333e+02,  1.3593563e+02,  4.9601705e+01,  0.0000000e+00
 1.7000000e-02,  5.2521082e+00,  1.2533047e+02,  1.3622085e+02,  5.0923977e+01,  0.0000000e+00
 1.7050000e-02,  5.2631852e+00,  1.2528222e+02,  1.3675820e+02,  8.8468396e+01,  0.0000000e+00
 1.7100000e-02,  5.2753881e+00,  1.2509302e+02,  1.3715853e+02,  1.1418901e+02,  0.0000000e+00
 1.7150000e-02,  5.2878917e+00,  1.2509672e+02,  1.3998725e+02,  6.7999085e+01,  0.0000000e+00
 1.7200000e-02,  5.3002807e+00,  1.2498460e+02,  1.3795593e+02,  5.0953833e+01,  0.0000000e+00
 1.7250000e-02,  5.3128834e+00,  1.2498698e+02,  1.3786341e+02,  4.2789041e+01,  0.0000000e+00
 1.7300000e-02,  5.3264761e+00,  1.2485687e+02,  1.3835032e+02,  2.0305283e+02,  0.0000000e+00
 1.7350000e-02,  5.3404438e+00,  1.2474190e+02,  1.3998313e+02,  1.1198747e+02,  0.0000000e+00
 1.7400000e-02,  5.3547628e+00,  1.2474931e+02,  1.3935841e+02,  6.8350530e+01,  0.0000000e+00
 1.7450000e-02,  5.3693084e+00,  1.2473496e+02,  1.3928697e+02,  4.9233922e+01,  0.0000000e+00
 1.7500000e-02,  5.3838253e+00,  1.2456179e+02,  1.4016094e+02,  5.7336507e+01,  0.0000000e+00
 1.7550000e-02,  5.3989338e+00,  1.2458617e+02,  1.4041575e+02,  5.7918531e+01,  0.0000000e+00
 1.7600000e-02,  5.4148785e+00,  1.2447042e+02,  1.4072512e+02,  7.9469693e+01,  0.0000000e+00
 1.7650000e-02,  5.4305809e+00,  1.2446254e+02,  1.4128896e+02,  6.2957376e+01,  0.0000000e+00
 1.7700000e-02,  5.4467144e+00,  1.2440376e+02,  1.4176477e+02,  5.5346978e+01,  0.0000000e+00
 1.7750000e-02,  5.4631644e+00,  1.2433920e+02,  1.4230751e+02,  5.6552750e+01,  0.0000000e+00
 1.7800000e-02,  5.4795641e+00,  1.2427497e+02,  1.4287468e+02,  8.9132067e+01,  0.0000000e+00
 1.7850000e-02,  5.4967882e+00,  1.2420323e+02,  1.4348019e+02,  1.0236772e+02,  0.0000000e+00
 1.7900000e-02,  5.5138045e+00,  1.2417480e+02,  1.4438209e+02,  6.5665024e+01,  0.0000000e+00
 1.7950000e-02,  5.5309797e+00,  1.2409526e+02,  1.4460282e+02,  5.1195776e+01,  0.0000000e+00
 1.8000000e-02,  5.5490774e+00,  1.2409763e+02,  1.4487528e+02,  4.4807438e+01,  0.0000000e+00
 1.8050000e-02,  5.5671445e+00,  1.2394632e+02,  1.4567729e+02,  4.2643467e+01,  0.0000000e+00
 1.8100000e-02,  5.5851722e+00,  1.2394245e+02,  1.4626852e+02,  5.0794755e+01,  0.0000000e+00
 1.8150000e-02,  5.6037554e+00,  1.2382061e+02,  1.4713081e+02,  4.6328256e+01,  0.0000000e+00
 1.8200000e-02,  5.6219971e+00,  1.2376908e+02,  1.4790058e+02,  4.1385433e+01,  0.0000000e+00
 1.8250000e-02,  5.6414737e+00,  1.2359589e+02,  1.4887890e+02,  8.3882477e+01,  0.0000000e+00
 1.8300000e-02,  5.6613730e+00,  1.2362735e+02,  1.4988013e+02,  7.3092240e+01,  0.0000000e+00
 1.8350000e-02,  5.6801416e+00,  1.2353272e+02,  1.5079615e+02,  5.7017438e+01,  0.0000000e+00
 1.8400000e-02,  5.7002592e+00,  1.2348644e+02,  1.5156679e+02,  4.4967228e+01,  0.0000000e+00
 1.8450000e-02,  5.7205404e+00,  1.2330873e+02,  1.5244815e+02,  4.8877454e+01,  0.0000000e+00
 1.8500000e-02,  5.7419157e+00,  1.2327222e+02,  1.5377398e+02,  5.6520482e+01,  0.0000000e+00
 1.8550000e-02,  5.7629088e+00,  1.2320153e+02,  1.5483702e+02,  6.3875286e+01,  0.0000000e+00
 1.8600000e-02,  5.7843099e+00,  1.2312934e+02,  1.5665745e+02,  6.5602970e+01,  0.0000000e+00
 1.8650000e-02,  5.8056161e+00,  1.2311389e+02,  1.5721310e+02,  4.9887347e+03,  0.0000000e+00
 1.8700000e-02,  5.8280779e+00,  1.2306137e+02,  1.5956661e+02,  2.5558153e+03,  0.0000000e+00
 1.8750000e-02,  5.8505635e+00,  1.2290595e+02,  1.6012145e+02,  1.2868579e+03,  0.0000000e+00
 1.8800000e-02,  5.8731381e+00,  1.2287597e+02,  1.6062240e+02,  6.4582863e+02,  0.0000000e+00
 1.8850000e-02,  5.8956780e+00,  1.2281640e+02,  1.6231528e+02,  3.4738258e+02,  0.0000000e+00
 1.8900000e-02,  5.9197188e+00,  1.2278843e+02,  1.6354891e+02,  1.9031240e+02,  0.0000000e+00
 1.8950000e-02,  5.9428873e+00,  1.2265424e+02,  1.6521025e+02,  1.0605588e+02,  0.0000000e+00
 1.9000000e-02,  5.9659597e+00,  1.2259096e+02,  1.6628849e+02,  6.4131394e+01,  0.0000000e+00
 1.9050000e-02,  5.9895134e+00,  1.2256600e+02,  1.6739654e+02,  2.1217756e+02,  0.0000000e+00
 1.9100000e-02,  6.0134214e+00,  1.2247101e+02,  1.6879842e+02,  1.2621022e+02,  0.0000000e+00
 1.9150000e-02,  6.0376224e+00,  1.2243384e+02,  1.6988686e+02,  7.2016442e+01,  0.0000000e+00
 1.9200000e-02,  6.0611595e+00,  1.2254385e+02,  1.7076845e+02,  5.8735138e+01,  0.0000000e+00
 1.9250000e-02,  6.0848226e+00,  1.2238287e+02,  1.7216100e+02,  5.9253911e+01,  0.0000000e+00
 1.9300000e-02,  6.1095902e+00,  1.2234828e+02,  1.7337070e+02,  7.2117309e+01,  0.0000000e+00
 1.9350000e-02,  6.1343190e+00,  1.2241675e+02,  1.7465707e+02,  5.6934852e+01,  0.0000000e+00
 1.9400000e-02,  6.1587708e+00,  1.2240928e+02,  1.7565506e+02,  5.1039800e+01,  0.0000000e+00
 1.9450000e-02,  6.1840853e+00,  1.2240209e+02,  1.7679191e+02,  4.5265254e+01,  0.0000000e+00
 1.9500000e-02,  6.2092172e+00,  1.2237973e+02,  1.7788096e+02,  4.0817555e+01,  0.0000000e+00
 1.9550000e-02,  6.2340486e+00,  1.2247644e+02,  1.7893694e+02,  4.6589883e+01,  0.0000000e+00
 1.9600000e-02,  6.2596425e+00,  1.2246528e+02,  1.7992711e+02,  4.5062899e+01,  0.0000000e+00
 1.9650000e-02,  6.2851380e+00,  1.2244730e+02,  1.8083541e+02,  4.7425571e+01,  0.0000000e+00
 1.9700000e-02,  6.3106383e+00,  1.2243431e+02,  1.8183995e+02,  4.4958766e+01,  0.0000000e+00
 1.9750000e-02,  6.3361051e+00,  1.2250604e+02,  1.8284065e+02,  4.4487410e+01,  0.0000000e+00
 1.9800000e-02,  6.3614383e+00,  1.2254729e+02,  1.8378097e+02,  5.7618054e+01,  0.0000000e+00
 1.9850000e-02,  6.3879318e+00,  1.2259413e+02,  1.8481281e+02,  4.7434957e+01,  0.0000000e+00
 1.9900000e-02,  6.4140226e+00,  1.2262749e+02,  1.8561797e+02,  4.2193936e+01,  0.0000000e+00
 1.9950000e-02,  6.4388347e+00,  1.2274063e+02,  1.8633359e+02,  6.6752661e+01,  0.0000000e+00
 2.0000000e-02,  6.4646833e+00,  1.2273246e+02,  1.8698061e+02,  5.2909240e+01,  0.0000000e+00
 2.0050000e-02,  6.4892233e+00,  1.2282783e+02,  1.8772272e+02,  5.3464035e+01,  0.0000000e+00
 2.0100000e-02,  6.5136371e+00,  1.2291309e+02,  1.8857200e+02,  4.3699586e+01,  0.0000000e+00
 2.0150000e-02,  6.5392786e+00,  1.2298416e+02,  1.8911895e+02,  5.4978069e+01,  0.0000000e+00
 2.0200000e-02,  6.5623232e+00,  1.2298613e+02,  1.8984134e+02,  8.2416912e+01,  0.0000000e+00
 2.0250000e-02,  6.5863072e+00,  1.2310094e+02,  1.9053847e+02,  6.2185549e+01,  0.0000000e+00
 2.0300000e-02,  6.6107674e+00,  1.2318433e+02,  1.9091843e+02,  4.7265768e+01,  0.0000000e+00
 2.0350000e-02,  6.6353950e+00,  1.2314797e+02,  1.9137926e+02,  1.2120330e+02,  0.0000000e+00
 2.0400000e-02,  6.6586263e+00,  1.2325599e+02,  1.9179154e+02,  7.1423186e+01,  0.0000000e+00
 2.0450000e-02,  6.6829169e+00,  1.2330211e+02,  1.9223672e+02,  5.6483406e+01,  0.0000000e+00
 2.0500000e-02,  6.7056505e+00,  1.2324142e+02,  1.9267546e+02,  2.6703846e+02,  0.0000000e+00
